%time,field
297000000,0.00821809933804
301000000,0.0081988159386
313000000,0.00813444204794
322000000,0.00803519769185
332000000,0.00791109432712
342000000,0.00726677617437
352000000,0.00642438889235
362000000,0.00561682258372
372000000,0.00485237050084
382000000,0.00400236482937
394000000,0.00315621152932
402000000,0.00238034251285
412000000,0.00167687004042
422000000,0.00139698087428
432000000,0.00116968789146
439000000,0.000991527647918
452000000,0.000851484199593
461000000,0.000730438878665
472000000,0.000642449944545
480000000,0.000582714552497
491000000,0.000547708096964
498000000,0.000511002637666
511000000,0.00045969578545
519000000,0.000424770715463
527000000,0.000403535943576
541000000,0.00038940095058
551000000,0.000348116682827
559000000,0.000316521755724
569000000,0.000293271754265
579000000,0.000277119219332
591000000,0.00025276363767
596000000,0.000224972077759
596000000,0.00020271358123
621000000,0.000185313514146
630000000,0.000165258902767
634000000,0.00014253364442
649000000,0.000123762466058
658000000,9.94797493774e-05
658000000,7.88703028357e-05
679000000,6.16173814902e-05
692000000,4.73986194164e-05
700000000,3.23628739898e-05
709000000,1.64924902092e-05
715000000,3.16647631698e-06
715000000,-7.85929561366e-06
741000000,-1.6824271252e-05
751000000,-2.39629580265e-05
755000000,-3.16910436002e-05
768000000,-4.28835398734e-05
780000000,-5.24392827649e-05
792000000,-6.04941018554e-05
799000000,-7.57870618362e-05
813000000,-9.14333995951e-05
822000000,-0.000109492110167
831000000,-0.000128306687613
841000000,-0.000145023621674
850000000,-0.000159715690468
859000000,-0.000172482092158
868000000,-0.000181901851403
879000000,-0.000189747491635
893000000,-0.000196177228849
905000000,-0.000204040153328
911000000,-0.000213262354169
924000000,-0.000221176727938
930000000,-0.000227882114601
947000000,-0.000233484354912
950000000,-0.00023948444234
960000000,-0.000246551337315
971000000,-0.000252615157014
981000000,-0.000257754639624
990000000,-0.000262491616863
1001000000,-0.000268158750718
1008000000,-0.000273011459388
1023000000,-0.000277420808197
1030000000,-0.000281427710561
1040000000,-0.000284778766993
1051000000,-0.000287538756621
1061000000,-0.000289771908109
1071000000,-0.000291539634218
1082000000,-0.000292347351124
1092000000,-0.000292605612083
1102000000,-0.00029261610766
1112000000,-0.000291714635329
1122000000,-0.00028907621769
1127000000,-0.000286474625304
1141000000,-0.000282486816819
1151000000,-0.000277274758609
1162000000,-0.000272403729636
1168000000,-0.000267910131343
1181000000,-0.00026381398033
1190000000,-0.000260121833503
1201000000,-0.000253792069244
1212000000,-0.000247704363099
1221000000,-0.000238410108431
1229000000,-0.000224370805956
1235000000,-0.000211512698605
1255000000,-0.000199873189188
1265000000,-0.00018945405519
1275000000,-0.000180228954005
1279000000,-0.000169235884148
1291000000,-0.00015760570087
1301000000,-0.000144686224864
1301000000,-0.000127246829833
1326000000,-0.000111558825709
1337000000,-9.76021768518e-05
1337000000,-8.53218187974e-05
1351000000,-7.46364256691e-05
1367000000,-5.25889417994e-05
1368000000,-3.27045086726e-05
1369000000,-1.49702994752e-05
1391000000,4.62054984507e-06
1402000000,3.76561665186e-05
1416000000,6.75838398239e-05
1421000000,9.64922783353e-05
1428000000,0.000125327495949
1440000000,0.000150887396696
1450000000,0.000173283287584
1459000000,0.000192675898815
1471000000,0.000209265368642
1480000000,0.000231134116519
1489000000,0.00025785001442
1502000000,0.000229388949883
1510000000,0.000167209645356
1522000000,0.000107868331759
1529000000,5.20906425458e-05
1542000000,1.13238028026e-05
1552000000,-9.72222831064e-06
1561000000,-2.80087966405e-05
1573000000,-4.37122592849e-05
1573000000,-5.7029608392e-05
1596000000,-6.66418938412e-05
1601000000,-6.09709553037e-05
1609000000,-5.44673126852e-05
1621000000,-4.74531139277e-05
1631000000,-3.57646696871e-05
1642000000,-2.24603699247e-05
1652000000,-9.71493444494e-06
1661000000,2.3017344198e-06
1671000000,1.47050370643e-05
1678000000,2.6251462354e-05
1690000000,3.67546134419e-05
1702000000,4.58684596143e-05
1712000000,5.31916729394e-05
1717000000,5.95720640513e-05
1732000000,6.50639494582e-05
1741000000,6.97292808022e-05
1752000000,7.15710228544e-05
1759000000,7.263158583e-05
1771000000,7.32391810731e-05
1779000000,7.34766652134e-05
1788000000,7.19112045017e-05
1803000000,5.70013792802e-05
1811000000,4.28155438096e-05
1821000000,2.95156235959e-05
1828000000,1.0034831557e-05
1841000000,-7.94771455013e-06
1849000000,-2.43462454004e-05
1859000000,-3.91285710063e-05
1871000000,-5.23073704708e-05
1879000000,-6.39290807661e-05
1890000000,-7.40662506424e-05
1900000000,-8.28087139496e-05
1911000000,-9.0255446026e-05
1921000000,-0.000102924703989
1931000000,-0.000120385313343
1941000000,-0.000136053865353
1952000000,-0.000180868605143
1957000000,-0.000232673224777
1957000000,-0.000290531550437
1982000000,-0.000345520618635
1992000000,-0.000398467457638
1994000000,-0.000445857206714
2012000000,-0.000487805070651
2019000000,-0.000524523664076
2033000000,-0.000562065019612
2044000000,-0.000600278174501
2052000000,-0.000633514857265
2060000000,-0.000662085838523
2072000000,-0.000686335926932
2082000000,-0.000706635643648
2091000000,-0.00074599160837
2101000000,-0.000780788234518
2111000000,-0.0008443542325
2125000000,-0.000909881712858
2132000000,-0.000968791808513
2142000000,-0.00102116538418
2148000000,-0.00106721103055
2160000000,-0.00111210360351
2172000000,-0.00115422677721
2181000000,-0.00119060428467
2190000000,-0.00122163863352
2199000000,-0.00126712322961
2203000000,-0.00131508479125
2221000000,-0.00135721888318
2235000000,-0.00141180895866
2235000000,-0.00147183449441
2251000000,-0.00152511135818
2252000000,-0.00157187458788
2271000000,-0.00161208347663
2281000000,-0.00164568347924
2291000000,-0.0016740234383
2292000000,-0.00169758118772
2311000000,-0.00172746760196
2312000000,-0.00175408030964
2331000000,-0.00177652701678
2341000000,-0.00179518595172
2351000000,-0.00181351211567
2358000000,-0.001830624525
2369000000,-0.00184344447207
2369000000,-0.00185239844234
2392000000,-0.00185915057788
2398000000,-0.00186401254675
2403000000,-0.00186727108435
2415000000,-0.00186919116934
2415000000,-0.00187001021721
2415000000,-0.00186994306263
2452000000,-0.00186917866598
2459000000,-0.00185481301562
2471000000,-0.00182793426119
2481000000,-0.00178356339453
2491000000,-0.00173491843912
2501000000,-0.00168292824396
2510000000,-0.00163519347736
2515000000,-0.0015918839916
2527000000,-0.00155303107962
2536000000,-0.00151855870641
2551000000,-0.00147593074868
2560000000,-0.00140988715629
2573000000,-0.00135014500988
2584000000,-0.00129670227055
2590000000,-0.000772370852209
2598000000,-0.000282878191677
2607000000,0.000168195753536
2621000000,0.000596460678799
2630000000,0.00113668003534
2641000000,0.00162575077582
2651000000,0.00206356062955
2661000000,0.0024511715325
2669000000,0.00279626260764
2681000000,0.0031084166099
2690000000,0.00337684559541
2698000000,0.00359548405326
2711000000,0.00375648083469
2732000000,0.00388598215135
2741000000,0.00398776077086
2748000000,0.00406540720613
2748000000,0.00412228920669
2748000000,0.00412975074417
2771000000,0.00409333820022
2780000000,0.00404881016793
2790000000,0.00394702483318
2796000000,0.00364303789077
2809000000,0.00335362744277
2810000000,0.00308218121691
2829000000,0.00289343483414
2829000000,0.00278343576276
2857000000,0.00268753833189
2871000000,0.0026048955163
2873000000,0.00253454156553
2890000000,0.00249350821472
2890000000,0.00246913069238
2900000000,0.00245216798445
2911000000,0.00244782039403
2915000000,0.00245090195949
2931000000,0.00245754902468
2942000000,0.00244326175262
2947000000,0.00242226846715
2961000000,0.00240473892944
2961000000,0.00239033365149
2961000000,0.00237871208709
2961000000,0.00236954313432
3001000000,0.00234644182977
3011000000,0.00232222059258
3018000000,0.002291739319
3031000000,0.00222885674976
3041000000,0.00217136689122
3051000000,0.00211941669455
3061000000,0.00207299439767
3071000000,0.00200665447812
3081000000,0.00194425853626
3089000000,0.00188863390975
3096000000,0.00183958274122
3111000000,0.00127914229602
3121000000,0.000699776996901
3129000000,0.000164989076071
3138000000,-0.000322694750252
3152000000,-0.000960089898643
3160000000,-0.00155928630063
3175000000,-0.0021055006368
3181000000,-0.00260976143359
3189000000,-0.00305404006607
3200000000,-0.0034410952005
3207000000,-0.00377438457068
3217000000,-0.00405784338344
3229000000,-0.00426036864404
3242000000,-0.00441992775667
3247000000,-0.00454522695179
3261000000,-0.00464070991759
3271000000,-0.0043238895077
3280000000,-0.00391428113789
3291000000,-0.00351885189478
3301000000,-0.00330046561673
3308000000,-0.00309674452777
3321000000,-0.00290913818146
3332000000,-0.00275696920847
3340000000,-0.0026630007766
3352000000,-0.00258211591536
3359000000,-0.00251334764588
3370000000,-0.00245566387326
3380000000,-0.00240985259359
3391000000,-0.00238911564655
3401000000,-0.00237519177853
3410000000,-0.00236740056508
3416000000,-0.00236824259543
3426000000,-0.002372553389
3434000000,-0.00237949714515
3458000000,-0.00238835441792
3461000000,-0.00231291454957
3471000000,-0.00220762850913
3481000000,-0.00211081528934
3492000000,-0.0020228453318
3500000000,-0.00189484383187
3511000000,-0.00173082702843
3511000000,-0.00158161256844
3511000000,-0.00144739954886
3540000000,-0.00132801048549
3552000000,-0.00121659852384
3563000000,-0.00106333501892
3571000000,-0.000926718400117
3584000000,-0.000806278750526
3592000000,-0.000701279142605
3602000000,-0.000525542586746
3606000000,-0.000324541597774
3619000000,-8.01623906226e-05
3630000000,0.000139818156791
3641000000,0.000335642753211
3648000000,0.000508046423104
3658000000,0.000658135207628
3670000000,0.000625046656538
3681000000,0.000344976495527
3691000000,0.000112632290353
3702000000,-5.15447388999e-05
3711000000,-0.000206478577511
3719000000,-0.000350659375723
3729000000,-0.0004831369901
3738000000,-0.000603420915327
3747000000,-0.000656810965348
3761000000,-0.000695274217307
3767000000,-0.000726180575903
3780000000,-0.000750444456877
3790000000,-0.000729897373926
3800000000,-0.000706750484216
3810000000,-0.000682069190274
3822000000,-0.000627587122329
3831000000,-0.000567798703556
3841000000,-0.000511053569797
3852000000,-0.000457982598169
3859000000,-0.000371117653232
3870000000,-0.000286619625515
3878000000,-0.000209392875216
3888000000,-0.000139618719425
3898000000,-5.92196844643e-05
3911000000,5.39273559162e-05
3920000000,0.000156372609281
3931000000,0.000712232451244
3940000000,0.00127985465554
3953000000,0.00180232980981
3961000000,0.00227753562449
3971000000,0.00270485160382
3978000000,0.00314935656835
3991000000,0.00360710669054
4006000000,0.00401298149019
4007000000,0.00436888281074
4015000000,0.00467743035543
4015000000,0.00494175291165
4043000000,0.00516530348933
4051000000,0.00528637575302
4060000000,0.00502722465905
4070000000,0.00476407860998
4082000000,0.00450367860581
4091000000,0.00425126941506
4095000000,0.00410465468069
4112000000,0.00402897878114
4112000000,0.00395974326059
4133000000,0.00389712439955
4133000000,0.00384111617442
4151000000,0.00379156710213
4162000000,0.00377386263633
4171000000,0.00377189931742
4180000000,0.00378470498526
4186000000,0.00379910337977
4197000000,0.00381442473161
4211000000,0.00383012492617
4221000000,0.00381767848866
4232000000,0.00379967691637
4242000000,0.0037833742796
4249000000,0.00376876562896
4261000000,0.00374995131507
4272000000,0.00371023408735
4277000000,0.00367380359631
4286000000,0.00364078400499
4300000000,0.0031867932692
4310000000,0.00258424006844
4320000000,0.00202503286282
4328000000,0.00151249303119
4338000000,0.00104819610857
4350000000,0.000632306282156
4355000000,0.000130880712918
4371000000,-0.000404452796354
4375000000,-0.000882027392311
4390000000,-0.00130339436226
4401000000,-0.00189257344214
4412000000,-0.00247006994516
4420000000,-0.0030097562812
4429000000,-0.0034847510226
4439000000,-0.00389811452467
4451000000,-0.0042536479855
4461000000,-0.00441467198487
4465000000,-0.00450085802525
4480000000,-0.00455462426322
4491000000,-0.00458163761086
4497000000,-0.0045869562245
4506000000,-0.00452155760975
4522000000,-0.00396115000352
4545000000,-0.00342397874436
4545000000,-0.00291715536489
4556000000,-0.00244559657969
4574000000,-0.00201238893203
4574000000,-0.00161910388611
4579000000,-0.00127299978751
4589000000,-0.00117876542698
4600000000,-0.00116062066007
4612000000,-0.00116045809144
4620000000,-0.00116819478713
4637000000,-0.0011871641038
4637000000,-0.00121455807044
4637000000,-0.00124797138934
4663000000,-0.00128537430957
4672000000,-0.00132460000871
4691000000,-0.00136446441745
4694000000,-0.00140419510138
4702000000,-0.00144292915416
4711000000,-0.00149177451431
4720000000,-0.00153776903046
4731000000,-0.00158048238937
4740000000,-0.00161965053621
4752000000,-0.00165961178302
4758000000,-0.00170606870217
4758000000,-0.00174795353377
4778000000,-0.00178529575112
4791000000,-0.00183042813541
4798000000,-0.00187192364809
4810000000,-0.00190852421459
4819000000,-0.00194873994531
4821000000,-0.00198494765356
4835000000,-0.00201643561311
4835000000,-0.00204349711875
4835000000,-0.00206646100527
4871000000,-0.00208613160602
4880000000,-0.00210415336363
4888000000,-0.0021190136149
4901000000,-0.00212852169846
4911000000,-0.00212993311675
4921000000,-0.00212967737113
4927000000,-0.00212810942692
4942000000,-0.00211990705097
4947000000,-0.00209849635565
4958000000,-0.00207775167561
4968000000,-0.00205799353984
4975000000,-0.00201726978197
4990000000,-0.0019738367227
4999000000,-0.00193371827895
5006000000,-0.00189710715227
5018000000,-0.00186408401687
5031000000,-0.00183462721213
5040000000,-0.00145641207646
5048000000,-0.000955414045242
5061000000,-0.00039273374698
5070000000,0.000507373615936
5082000000,0.00133712871862
5092000000,0.0020928483228
5101000000,0.00275504451276
5111000000,0.00318375716203
5121000000,0.00355112570677
5130000000,0.00379304728116
5141000000,0.00392037696803
5151000000,0.0040101440549
5161000000,0.00406829021553
5172000000,0.00410020706027
5182000000,0.00406865516418
5191000000,0.00365358919988
5194000000,0.0032504995273
5212000000,0.00286587627995
5221000000,0.00250441281406
5232000000,0.00221884321473
5239000000,0.0020712889466
5251000000,0.00194258456266
5261000000,0.00184777487892
5271000000,0.00178421643276
5277000000,0.00173366258107
5289000000,0.0016944839307
5301000000,0.00171384877146
5312000000,0.00175056494698
5322000000,0.00179028771765
5328000000,0.00183148818403
5338000000,0.00185673755354
5346000000,0.00186623783888
5359000000,0.00187633178317
5372000000,0.00186271118615
5377000000,0.00181544426009
5392000000,0.00177169997241
5402000000,0.00173170988068
5411000000,0.00169557154366
5419000000,0.00160149452596
5426000000,0.00151490704989
5438000000,0.00143615606208
5449000000,0.0013653436444
5449000000,0.00130237378047
5472000000,0.00120989399187
5478000000,0.00110273448012
5482000000,0.00100637195817
5501000000,0.000920670977152
5511000000,0.000845285709358
5518000000,0.000936357862574
5530000000,0.00104415331573
5538000000,0.00114863784354
5551000000,0.00130109557039
5559000000,0.00144995981499
5567000000,0.00158789874571
5568000000,0.00171413338337
5592000000,0.00169587099532
5598000000,0.00165920116772
5598000000,0.00162074810598
5621000000,0.00158175078478
5627000000,0.00153215131063
5641000000,0.00147980260053
5650000000,0.00143027608501
5661000000,0.0013685754549
5671000000,0.00129634653223
5681000000,0.00122995172208
5689000000,0.00116964150364
5700000000,0.00109751738543
5709000000,0.00100624938769
5717000000,0.000923658195114
5726000000,0.000849743607608
5740000000,0.000756673619007
5752000000,0.000646459001583
5761000000,0.000547513167853
5769000000,0.000459662607794
5782000000,-0.000210777977607
5792000000,-0.000899535697964
5801000000,-0.00153400014014
5811000000,-0.00220947080218
5820000000,-0.00288492955769
5820000000,-0.0034924942208
5838000000,-0.00403294675183
5852000000,-0.00450842018957
5859000000,-0.00487179935046
5873000000,-0.00516795613841
5881000000,-0.00541465922402
5892000000,-0.00561685156959
5902000000,-0.0055541236721
5906000000,-0.00532353708503
5906000000,-0.00508711490637
5908000000,-0.00485138458647
5938000000,-0.00462147547898
5949000000,-0.00447232891822
5949000000,-0.00440079378369
5965000000,-0.00433469053783
5982000000,-0.00428527355027
5989000000,-0.00428370045045
5999000000,-0.00428463018417
6011000000,-0.00428750680574
6021000000,-0.00429332129291
6031000000,-0.00431301032373
6036000000,-0.00433251480461
6052000000,-0.00435318521307
6061000000,-0.00437542354321
6067000000,-0.00439627026455
6081000000,-0.00441554622224
6088000000,-0.00443314700592
6101000000,-0.00433854607001
6112000000,-0.00414109843656
6122000000,-0.00395618183776
6131000000,-0.00378527653251
6139000000,-0.0035637263166
6149000000,-0.00326547754184
6160000000,-0.00299271361947
6170000000,-0.00274613408643
6181000000,-0.00251057011241
6190000000,-0.00216869663395
6201000000,-0.00186042378922
6210000000,-0.00158552886481
6221000000,-0.00123683861341
6229000000,-0.000925582260011
6240000000,-0.000650790281726
6250000000,-0.000410891616052
6261000000,-0.000174708361622
6272000000,9.55192470639e-05
6279000000,0.000331675546774
6290000000,0.000535703952402
6302000000,0.000760533090907
6308000000,0.000954986174934
6312000000,0.00112102088566
6312000000,0.00126093279505
6332000000,0.00137712323584
6332000000,0.00147201756563
6361000000,0.0015480103595
6370000000,0.00166050527585
6378000000,0.00175537265708
6383000000,0.00183422167736
6402000000,0.00192761537962
6410000000,0.00200960355421
6420000000,0.00209975067116
6429000000,0.00217647483691
6441000000,0.00224090441719
6451000000,0.00229419935889
6460000000,0.00203429497962
6472000000,0.00170986691267
6482000000,0.00140312596516
6491000000,0.00111718988431
6500000000,0.000901930100651
6511000000,0.000777694740755
6521000000,0.000670040696919
6525000000,0.000577862424437
6530000000,0.000499940442802
6539000000,0.000452604561677
6553000000,0.000441650668336
6562000000,0.000438305529131
6581000000,0.000466065518054
6590000000,0.00049975001259
6601000000,0.0005350982939
6610000000,0.000570964072619
6622000000,0.000699885590158
6632000000,0.000958796104242
6640000000,0.00120127360481
6651000000,0.00142537285252
6661000000,0.00162997098365
6670000000,0.00184100825868
6681000000,0.00204178648523
6691000000,0.00222071133363
6700000000,0.00235718713877
6711000000,0.0022886567798
6722000000,0.00221383354626
6730000000,0.00213572952254
6741000000,0.00208386727308
6751000000,0.00209309280503
6751000000,0.00209930506539
6752000000,0.00210300035797
6784000000,0.00210183032832
6793000000,0.00208825684154
6806000000,0.00207422285023
6809000000,0.00203844052924
6815000000,0.00197249374508
6832000000,0.00191049879275
6841000000,0.00185300494915
6851000000,0.0018003433121
6859000000,0.00170863330959
6869000000,0.00160615402006
6879000000,0.00151272287046
6891000000,0.00142850801532
6902000000,0.00129878926851
6924000000,0.0011753396703
6924000000,0.0010645042126
6935000000,0.000966088773297
6935000000,0.00087966261313
6951000000,0.000754020709892
6964000000,0.000641945135688
6969000000,0.000543190581752
6980000000,0.000441720093615
6993000000,0.000318021836637
7003000000,0.000208598473117
7011000000,0.000112873376549
7021000000,3.00864559694e-05
7033000000,-7.72148881864e-05
7040000000,-0.000171226837089
7054000000,-0.000252654265277
7062000000,-0.000329172511226
7073000000,-0.000421111626895
7082000000,-0.000501118168538
7087000000,-0.000569927492878
7094000000,-0.000628374973829
7110000000,-0.000664142606133
7123000000,-0.000692108039989
7130000000,-0.000713679329127
7136000000,-0.000732523322274
7146000000,-0.000746246342319
7153000000,-0.000755623424097
7172000000,-0.000761365776967
7180000000,-0.000762455298553
7195000000,-0.000758760796503
7211000000,-0.000753412196307
7212000000,-0.000746878782415
7221000000,-0.000739356418313
7232000000,-0.000731091649397
