%time,field
62000000,-5.39411960356e-19
73000000,-2.86293892985e-18
82000000,-5.32848523908e-18
91000000,-7.91831838399e-18
102000000,-9.72627994614e-18
112000000,-1.15704473326e-17
120000000,-1.34413547929e-17
122000000,3.86078770663e-15
138000000,-2.02638846454e-15
149000000,1.26060223395e-13
156000000,2.26434553947e-07
163000000,1.02596124323e-06
181000000,-0.000344182473856
192000000,-0.000817755478674
202000000,-0.00126335736081
212000000,-0.00167829606521
220000000,-0.00215821871309
232000000,-0.00341282924102
242000000,-0.00459212644325
251000000,-0.00568256693726
262000000,-0.0065983234114
271000000,-0.00725001357669
281000000,-0.00781583033872
291000000,-0.00821335829411
302000000,-0.00819443466973
311000000,-0.00813042156967
322000000,-0.00803153189748
332000000,-0.00790777120221
341000000,-0.00726377904486
351000000,-0.00642169757981
358000000,-0.00561441435272
368000000,-0.00485022129
374000000,-0.00400044990231
390000000,-0.00315450605054
401000000,-0.00237882202305
410000000,-0.00167551183832
420000000,-0.00136152280961
431000000,-0.00113622601064
442000000,-0.000960353586408
452000000,-0.000822782397574
461000000,-0.000704304351292
471000000,-0.000618904456813
479000000,-0.000561721443363
479000000,-0.000529185508074
502000000,-0.000494832632734
511000000,-0.000445733252307
521000000,-0.000412851793867
527000000,-0.000393485247922
541000000,-0.000381037583241
552000000,-0.000341259164488
559000000,-0.000310991989344
569000000,-0.00028889812457
579000000,-0.000273738934098
592000000,-0.000250224413374
601000000,-0.000223133265285
611000000,-0.000201446820631
621000000,-0.00018450299862
628000000,-0.000164801324844
641000000,-0.000142337889024
650000000,-0.000123749204508
656000000,-9.95811211182e-05
667000000,-7.90291834436e-05
667000000,-6.17864612894e-05
688000000,-4.75394493676e-05
700000000,-3.24449139992e-05
710000000,-1.6492180421e-05
715000000,-3.06634683974e-06
715000000,8.07133753085e-06
739000000,1.71549316588e-05
751000000,2.44141078165e-05
756000000,3.22606692003e-05
767000000,4.35666191622e-05
779000000,5.32285487062e-05
792000000,6.13806972657e-05
803000000,7.67610929551e-05
813000000,9.24843971185e-05
821000000,0.000110609406896
832000000,0.000129479721971
840000000,0.00014624217539
850000000,0.000160969932323
861000000,0.000173762103737
871000000,0.000183197696348
880000000,0.000191049528125
891000000,0.000197476364694
898000000,0.000205328030073
911000000,0.000214531469454
924000000,0.000222420506585
931000000,0.000229094937322
941000000,0.000234661531108
953000000,0.000240622158817
961000000,0.000247646622082
972000000,0.00025366583147
982000000,0.000258759258743
992000000,0.00026344940119
999000000,0.000269069513695
1012000000,0.000273875532891
1023000000,0.000278238968606
1030000000,0.000282201107115
1040000000,0.000285508853804
1051000000,0.000288227235205
1061000000,0.000290420739877
1071000000,0.000292151022681
1082000000,0.000292923664608
1091000000,0.000293149311265
1102000000,0.000293129684389
1110000000,0.000292200562446
1122000000,0.000289536908763
1127000000,0.000286912415562
1141000000,0.00028290409015
1153000000,0.000277674014118
1153000000,0.000272787516401
1166000000,0.000268280981762
1181000000,0.000264174355825
1192000000,0.000260474082496
1201000000,0.000254138396029
1205000000,0.000248046806049
1222000000,0.000238750525903
1229000000,0.000224710869193
1242000000,0.000211853889633
1261000000,0.000200216806548
1265000000,0.000189801279082
1275000000,0.000180580902558
1283000000,0.000169593605404
1292000000,0.000157970160399
1302000000,0.000145058296263
1304000000,0.000127627289383
1320000000,0.000111948349621
1337000000,9.80013412354e-05
1344000000,8.57311053434e-05
1353000000,7.50562528022e-05
1368000000,5.30196804389e-05
1381000000,3.31464795881e-05
1381000000,1.54237699883e-05
1393000000,-2.27103356981e-06
1402000000,-3.53765064164e-05
1416000000,-6.53957561788e-05
1420000000,-9.39148577513e-05
1428000000,-0.000122889481399
1435000000,-0.00014859923511
1435000000,-0.000171149960812
1454000000,-0.000190698006568
1472000000,-0.000207440030979
1480000000,-0.000229455739014
1486000000,-0.000256310954257
1501000000,-0.000227980091984
1511000000,-0.000165920893886
1519000000,-0.00010668902231
1531000000,-5.10099253282e-05
1542000000,-1.03310581992e-05
1548000000,1.06371679602e-05
1560000000,2.88555269033e-05
1572000000,4.44997231838e-05
1572000000,5.77660459161e-05
1590000000,6.73348162205e-05
1601000000,6.16271392366e-05
1601000000,5.50928112309e-05
1622000000,4.80532801212e-05
1631000000,3.63441896212e-05
1640000000,2.30233034543e-05
1651000000,1.02647419457e-05
1661000000,-1.76220484712e-06
1668000000,-1.41734988985e-05
1676000000,-2.57261175985e-05
1689000000,-3.62340829249e-05
1702000000,-4.54567507008e-05
1711000000,-5.27783124541e-05
1721000000,-5.91553855678e-05
1728000000,-6.46428478784e-05
1740000000,-6.93031208403e-05
1752000000,-7.11395519891e-05
1759000000,-7.21948558456e-05
1774000000,-7.27974794847e-05
1780000000,-7.30304554923e-05
1789000000,-7.14610749022e-05
1801000000,-5.65479986009e-05
1811000000,-4.23596255673e-05
1822000000,-2.90578967584e-05
1833000000,-9.57601657313e-06
1855000000,8.40692328516e-06
1855000000,2.48051893848e-05
1855000000,3.95866179229e-05
1869000000,5.2763916883e-05
1888000000,6.43835640078e-05
1888000000,7.45181580942e-05
1901000000,8.32575893479e-05
1909000000,9.07008926553e-05
1921000000,0.000103366387845
1931000000,0.000120823081059
1941000000,0.000136487895821
1948000000,0.000181299369517
1954000000,0.000231110887413
1972000000,0.000289062640347
1982000000,0.000344167185732
1992000000,0.00039724490049
1999000000,0.000444775275619
2012000000,0.000486868789956
2025000000,0.000523734169674
2032000000,0.000561420312086
2035000000,0.000599773786632
2035000000,0.00063314442293
2053000000,0.000661841474486
2072000000,0.00068620861807
2076000000,0.000706615654024
2088000000,0.000746068834771
2097000000,0.000780952495959
2111000000,0.000844595505013
2121000000,0.000910190311863
2131000000,0.000969158555632
2142000000,0.00102158180527
2148000000,0.00106766942542
2162000000,0.0011125970529
2171000000,0.00115474912926
2183000000,0.00119115012724
2191000000,0.00122220325673
2201000000,0.00126770258171
2211000000,0.00131567542911
2221000000,0.00135781791835
2239000000,0.00141241400436
2248000000,0.00147244361235
2251000000,0.00152572300151
2259000000,0.00157248747692
2270000000,0.00161269649455
2279000000,0.00164629565607
2291000000,0.00167463394463
2300000000,0.00169818932744
2306000000,0.00172697067407
2310000000,0.00175363886249
2324000000,0.00177615100152
2341000000,0.00179488183939
2350000000,0.00181328342917
2361000000,0.00183047235831
2369000000,0.00184336796101
2369000000,0.00185239518226
2388000000,0.00185921698973
2398000000,0.00186414419435
2415000000,0.00186746294658
2415000000,0.00186943786914
2415000000,0.00187030621194
2415000000,0.00187028279915
2450000000,0.0018695567037
2456000000,0.00185522412467
2470000000,0.0018283734994
2481000000,0.00178402616317
2488000000,0.00173540051335
2494000000,0.00168342579075
2509000000,0.00163570305925
2516000000,0.00159240256019
2518000000,0.00155355597403
2537000000,0.00151908769032
2551000000,0.00147646199633
2557000000,0.00141041921908
2573000000,0.00135067676671
2581000000,0.00129723288219
2591000000,0.000772899804227
2601000000,0.000283405217705
2608000000,-0.000167670803936
2620000000,-0.000595937861258
2633000000,-0.00113615929064
2641000000,-0.00162523197256
2650000000,-0.00206304360892
2662000000,-0.00245065611956
2671000000,-0.00279574862503
2684000000,-0.00310790388515
2690000000,-0.00337633396776
2702000000,-0.00359497337438
2711000000,-0.00375597097014
2732000000,-0.0038854729718
2732000000,-0.0039872521522
2748000000,-0.00406489903019
2756000000,-0.00412178135994
2756000000,-0.00412924310935
2756000000,-0.00409283065776
2777000000,-0.00404830258929
2792000000,-0.00394651708206
2803000000,-0.00364252983367
2813000000,-0.00335311894397
2821000000,-0.00308167211708
2830000000,-0.00289292494854
2843000000,-0.00278292489508
2844000000,-0.00268702628414
2857000000,-0.00260438209127
2873000000,-0.00253402657162
2890000000,-0.00249299147019
2890000000,-0.00246861203004
2901000000,-0.002451647253
2908000000,-0.00244729745968
2920000000,-0.00245037670754
2931000000,-0.00245702135727
2942000000,-0.00244589140841
2950000000,-0.00242473548411
2961000000,-0.00240701172832
2961000000,-0.00238054168276
2961000000,-0.00237113977771
3001000000,-0.002347806294
3011000000,-0.00232335835974
3018000000,-0.00229265951875
3028000000,-0.00222957122403
3039000000,-0.00217188940305
3051000000,-0.00211976227781
3061000000,-0.00207317884626
3072000000,-0.00200669387456
3076000000,-0.00194416884676
3089000000,-0.00188843066745
3101000000,-0.00183928079781
3111000000,-0.00127875554274
3122000000,-0.000699318239604
3129000000,-0.000164470130057
3140000000,0.000323263119113
3152000000,0.000960698037261
3160000000,0.00155992566268
3168000000,0.0021061636837
3186000000,0.00261044160167
3192000000,0.00305473168834
3202000000,0.00344179343376
3210000000,0.00377508533381
3216000000,0.00405854329638
3228000000,0.00426106496308
3241000000,0.00442061830998
3249000000,0.00454591008146
3256000000,0.00464138440046
3271000000,0.00432455445572
3278000000,0.00391493595659
3290000000,0.00351949629932
3301000000,0.00330109957932
3312000000,0.00309736821751
3320000000,0.00290975192101
3331000000,0.00275757344768
3341000000,0.00266359608639
3351000000,0.00258270295559
3361000000,0.00251392713513
3369000000,0.00245623656217
3381000000,0.00241041924234
3392000000,0.00238967700702
3401000000,0.00237574857893
3408000000,0.0023679534997
3419000000,0.00236879231694
3419000000,0.00237310050276
3433000000,0.00238004220626
3449000000,0.00238889792667
3461000000,0.00231345693599
3471000000,0.00220817013087
3481000000,0.00211135643167
3491000000,0.00202338621636
3500000000,0.00189538462642
3509000000,0.00173136786437
3513000000,0.001582153538
3513000000,0.00144794071346
3543000000,0.00132855192552
3552000000,0.00121714036865
3558000000,0.00106387744169
3570000000,0.000927261599037
3581000000,0.000806822930675
3590000000,0.00070182450799
3601000000,0.000526089345708
3611000000,0.000325089956736
3620000000,8.07125557681e-05
3628000000,-0.000139266005994
3639000000,-0.000335088473253
3639000000,-0.000507489910995
3657000000,-0.000657576431922
3668000000,-0.000624485667019
3681000000,-0.000344413455724
3692000000,-0.000112067397808
3700000000,5.21112876275e-05
3711000000,0.000207046579842
3720000000,0.000351228627419
3731000000,0.000483707292725
3738000000,0.000603992090206
3746000000,0.000663044297613
3761000000,0.000701205724847
3768000000,0.000731757228264
3781000000,0.000755631420717
3789000000,0.000734675097113
3800000000,0.000711112038572
3811000000,0.000686017877221
3821000000,0.000631134352239
3831000000,0.000570962126892
3841000000,0.000513855442475
3851000000,0.000460448377188
3860000000,0.000377203356112
3872000000,0.000292215264487
3881000000,0.000214490348993
3890000000,0.000144222087754
3901000000,6.33426414934e-05
3911000000,-5.02636958456e-05
3922000000,-0.000153141660213
3931000000,-0.00070940373934
3940000000,-0.00127739520631
3953000000,-0.00180020544831
3961000000,-0.00227571193935
3968000000,-0.00270329472435
3980000000,-0.00314803377134
3991000000,-0.00360598684038
4006000000,-0.00401203542342
4007000000,-0.00436808356297
4008000000,-0.00467675328913
4008000000,-0.00494117576673
4008000000,-0.00516480637218
4050000000,-0.00528594108465
4060000000,-0.00502683712974
4072000000,-0.00476372500801
4081000000,-0.00450334766862
4091000000,-0.00425095167826
4094000000,-0.00408964034329
4115000000,-0.00401468729276
4115000000,-0.00394632072183
4116000000,-0.00388466911638
4116000000,-0.00382968617631
4150000000,-0.00378118697784
4160000000,-0.00376452966107
4170000000,-0.00376358898483
4181000000,-0.00377737590468
4190000000,-0.00379270154763
4197000000,-0.0038088872114
4212000000,-0.00382538297938
4218000000,-0.0038136602008
4231000000,-0.00379630936098
4240000000,-0.00378058527656
4251000000,-0.00376648514381
4261000000,-0.00374811258767
4267000000,-0.00370877441106
4282000000,-0.0036726648319
4291000000,-0.00363991290116
4301000000,-0.00318614155602
4310000000,-0.00258376436389
4318000000,-0.00202469478886
4332000000,-0.00151225903439
4339000000,-0.00104803721759
4348000000,-0.000632197818809
4357000000,-0.000151637791074
4370000000,0.000384709029552
4381000000,0.000863525026178
4388000000,0.00128628918654
4402000000,0.00187696023955
4412000000,0.00245599277273
4417000000,0.0029972177153
4429000000,0.0034737204258
4437000000,0.00388853535068
4451000000,0.0042454441829
4461000000,0.00440775350985
4477000000,0.00449512556689
4477000000,0.00454997326826
4477000000,0.00457796155949
4502000000,0.00458414929038
4509000000,0.00457140570608
4522000000,0.00400949391248
4545000000,0.00347010686993
4545000000,0.00296054617224
4545000000,0.00248589144028
4556000000,0.00204936699168
4556000000,0.00165265906062
4580000000,0.00130311994566
4589000000,0.00118143485245
4600000000,0.00116129347454
4613000000,0.00115953328478
4622000000,0.00116602505631
4640000000,0.00118405767419
4642000000,0.00121078109381
4647000000,0.00124375075259
4662000000,0.00128090072302
4672000000,0.00132003124176
4691000000,0.00135992857205
4691000000,0.00139979385589
4701000000,0.0014387409157
4712000000,0.00148785743195
4725000000,0.00153416383174
4731000000,0.00157721501025
4735000000,0.00161673450093
4756000000,0.00165419286126
4761000000,0.00170112555793
4772000000,0.00174350737556
4782000000,0.00178135293257
4791000000,0.00182698300895
4796000000,0.00186896109877
4810000000,0.00190602188624
4826000000,0.00194667017262
4831000000,0.00198327911803
4837000000,0.00201513474474
4837000000,0.0020425292634
4859000000,0.00206579140514
4871000000,0.00208572621236
4879000000,0.00210397942701
4891000000,0.00211904011832
4901000000,0.00212871966622
4912000000,0.00213027581953
4921000000,0.00213014044099
4926000000,0.00212867089818
4942000000,0.00212054733852
4947000000,0.00209919818631
4958000000,0.00207849998525
4968000000,0.00205877534667
4969000000,0.00201807404583
4988000000,0.00197465419392
4999000000,0.00193454133025
5010000000,0.00189792961164
5018000000,0.00186490098936
5031000000,0.00183543491778
5039000000,0.0014572077491
5051000000,0.000956195864124
5062000000,0.000393500570911
5071000000,-0.000506622225966
5077000000,-0.0013363927449
5092000000,-0.00209212746279
5101000000,-0.00275433826421
5110000000,-0.00318306492646
5120000000,-0.00355044678973
5130000000,-0.00379238090143
5135000000,-0.00391972233379
5152000000,-0.00400950034941
5164000000,-0.00406765661564
5171000000,-0.00409958275444
5182000000,-0.00406803936236
5191000000,-0.00365298118283
5198000000,-0.00324989859847
5198000000,-0.00286528175944
5218000000,-0.00250382405133
5231000000,-0.00221825959379
5240000000,-0.00207070988347
5251000000,-0.001942009512
5261000000,-0.00184720331045
5271000000,-0.00178364783177
5282000000,-0.00173309645752
5291000000,-0.00169391982486
5301000000,-0.00171328625436
5311000000,-0.00175000362876
5321000000,-0.00178972724876
5331000000,-0.00183092825461
5341000000,-0.00185922925719
5351000000,-0.00186858373458
5360000000,-0.00187849934019
5371000000,-0.00186467818919
5373000000,-0.00181719720561
5391000000,-0.00177323260388
5401000000,-0.0017330218663
5411000000,-0.00169666729304
5418000000,-0.00160238214162
5429000000,-0.00151559741161
5441000000,-0.00143666204019
5451000000,-0.00136567943019
5461000000,-0.00130255433597
5471000000,-0.00120993458255
5481000000,-0.00110265028588
5491000000,-0.00100617777279
5502000000,-0.000920380971414
5511000000,-0.000844913253996
5512000000,-0.00093591541083
5529000000,-0.00104365231827
5541000000,-0.00114808863472
5547000000,-0.00130050735747
5558000000,-0.00144934071118
5572000000,-0.00158725581389
5582000000,-0.0017134726972
5591000000,-0.00169519769838
5603000000,-0.00165851954966
5610000000,-0.00162006171808
5621000000,-0.00158106259277
5632000000,-0.00153146377937
5642000000,-0.00147911773882
5651000000,-0.00142959549241
5660000000,-0.0013679003647
5670000000,-0.00129567785294
5681000000,-0.00122929009145
5681000000,-0.00116898733055
5699000000,-0.00109687088526
5712000000,-0.00100561060367
5718000000,-0.000923027034519
5728000000,-0.000849119859405
5740000000,-0.000756056927752
5752000000,-0.000645848878143
5759000000,-0.000546909042065
5768000000,-0.000459063862183
5783000000,0.00021137209526
5789000000,0.000900126056102
5801000000,0.00153458752898
5810000000,0.00221005594286
5821000000,0.00288551311547
5825000000,0.00349307672863
5838000000,0.00403352861893
5852000000,0.00450900171784
5861000000,0.00487238071906
5873000000,0.00516853740502
5882000000,0.00541524036524
5891000000,0.00561743249454
5901000000,0.00555470421635
5907000000,0.00532411700654
5916000000,0.00508769398472
5916000000,0.00485196262166
5938000000,0.00462205230166
5949000000,0.00447290439645
5949000000,0.00440136782578
5966000000,0.00433526307274
5982000000,0.0042858445311
5991000000,0.00428426985623
5999000000,0.00428519801194
6004000000,0.00428807307199
6020000000,0.00429388604066
6032000000,0.00431357362126
6041000000,0.00433307673961
6051000000,0.00435374588913
6062000000,0.00437598307609
6072000000,0.00439682877903
6081000000,0.00441610385003
6092000000,0.00443370388348
6101000000,0.0043391023409
6116000000,0.00414165427286
6122000000,0.0039567374113
6132000000,0.00378583201047
6139000000,0.00356428190182
6160000000,0.00326603350725
6160000000,0.00299327026872
6170000000,0.00274669172791
6182000000,0.00251112904537
6190000000,0.00216925716282
6201000000,0.00186098620146
6211000000,0.00158609340167
6221000000,0.00123740549462
6231000000,0.000926151681904
6240000000,0.000651362394884
6252000000,0.000411466520111
6259000000,0.000175286050782
6268000000,-9.49388749122e-05
6282000000,-0.000331092692442
6290000000,-0.000535118892593
6302000000,-0.000755226208972
6312000000,-0.000949936295308
6322000000,-0.00111627107493
6330000000,-0.00125651115129
6339000000,-0.00137304526849
6353000000,-0.00146828838137
6363000000,-0.00154462663991
6368000000,-0.00165745702736
6379000000,-0.00175264476735
6390000000,-0.00183179527248
6401000000,-0.00192546898031
6409000000,-0.00200771405812
6421000000,-0.00209809417143
6430000000,-0.00217502729003
6441000000,-0.00223964217991
6450000000,-0.00229309962616
6461000000,-0.00203333618493
6470000000,-0.00170902896803
6479000000,-0.00140239034158
6491000000,-0.00111653968941
6502000000,-0.000901350102001
6511000000,-0.000777171341623
6521000000,-0.000669561902283
6529000000,-0.000577417760245
6530000000,-0.000499520816453
6535000000,-0.000452202155175
6559000000,-0.000441258843311
6567000000,-0.000437918735167
6579000000,-0.000465678956776
6590000000,-0.000499360028574
6601000000,-0.000534702045823
6611000000,-0.000570559398464
6621000000,-0.000699470885792
6631000000,-0.000958370276162
6641000000,-0.00120083601376
6652000000,-0.0014249231947
6661000000,-0.0016295092786
6672000000,-0.0018369990928
6681000000,-0.00203794458252
6691000000,-0.00221707270498
6701000000,-0.0023537762415
6711000000,-0.0022854886006
6719000000,-0.00221091469338
6730000000,-0.00213305992666
6741000000,-0.00208144160238
6751000000,-0.00209090170099
6759000000,-0.00209733594857
6771000000,-0.00210123843524
6781000000,-0.00210025937673
6791000000,-0.00208685987562
6801000000,-0.00207298256855
6810000000,-0.00203733972753
6820000000,-0.00197151564732
6831000000,-0.00190962752337
6842000000,-0.00185222555249
6850000000,-0.00179964188487
6862000000,-0.00170799705947
6869000000,-0.00160557138878
6879000000,-0.00151218357297
6890000000,-0.00142800295807
6902000000,-0.00129831032698
6908000000,-0.0011748799296
6908000000,-0.00106405782635
6929000000,-0.000965650812172
6938000000,-0.000879228955398
6951000000,-0.000758299566576
6962000000,-0.000645963985294
6969000000,-0.000546904640795
6982000000,-0.000445099992182
6990000000,-0.000321051050181
7003000000,-0.000211271370448
7011000000,-0.00011519301681
7021000000,-3.20627744225e-05
7031000000,7.55667352581e-05
